1418.000,1335.000,1445.000,1578.000,1565.000,1450.000,1375.000,1489.000,1642.000,1653.000,1536.000,1445.000,1541.000,1744.000,1632.000,1521.000,1573.000,1696.000,1697.000,1397.000,1396.000,1483.000,1493.000,1359.000,1232.000,1386.000,1429.000,1322.000,1221.000,1233.000,1378.000,1384.000,1237.000,1237.000,1384.000,1477.000,1416.000,1280.000,1280.000,1408.000,1456.000,1336.000,1168.000,1141.000,1343.000,1685.000,1999.000,2416.000,2997.000,3488.000,3767.000,3718.000,2881.000,2592.000,2357.000,2042.000,1663.000,1349.000,1214.000,1143.000,1022.000,853.0000,724.0000,762.0000,863.0000,789.0000,724.0000,810.0000,965.0000,1003.000,919.0000,936.0000,1077.000,1160.000,1072.000,981.0000,1035.000,1276.000,1216.000,1093.000,1146.000,1300.000,1384.000,1180.000,1194.000,1349.000,1419.000,1349.000,1216.000,1329.000,1418.000,1345.000,1205.000,1192.000,1301.000,1402.000,1221.000,1194.000,1311.000,1442.000,1429.000,1258.000,1397.000,1515.000,1525.000,1375.000,1338.000,1460.000,1578.000,1588.000,1437.000,1355.000,1461.000,1578.000,1437.000,1343.000,1429.000,1550.000,1589.000,1461.000,1358.000,1570.000,1605.000,1477.000,1376.000,1429.000,1562.000,1493.000,1378.000,1397.000,1546.000,1617.000,1493.000,1386.000,1397.000,1544.000,1621.000,1525.000,1418.000,1429.000,1685.000,1621.000,1506.000,1501.000,1642.000,1749.000,1661.000,1514.000,1477.000,1562.000,1629.000,1525.000,1354.000,1354.000,1461.000,1405.000,1274.000,1221.000,1312.000,1429.000,1397.000,1274.000,1205.000,1294.000,1439.000,1429.000,1237.000,1314.000,1472.000,1473.000,1339.000,1237.000,1258.000,1360.000,1349.000,1263.000,1301.000,1626.000,2173.000,3362.000,3709.000,3894.000,3857.000,3479.000,2906.000,2373.000,2030.000,1861.000,1653.000,1386.000,1093.000,938.0000,965.0000,872.0000,725.0000,698.0000,852.0000,925.0000,898.0000,789.0000,778.0000,949.0000,1073.000,1058.000,961.0000,936.0000,1093.000,1205.000,1194.000,1077.000,1019.000,1173.000,1297.000,1290.000,1130.000,1269.000,1393.000,1418.000,1301.000,1210.000,1301.000,1413.000,1418.000,1281.000,1162.000,1247.000,1390.000,1285.000,1163.000,1245.000,1373.000,1418.000,1301.000,1198.000,1296.000,1431.000,1512.000,1405.000,1312.000,1365.000,1578.000,1488.000,1342.000,1381.000,1501.000,1578.000,1338.000,1364.000,1489.000,1578.000,1493.000,1338.000,1477.000,1578.000,1501.000,1354.000,1349.000,1476.000,1578.000,1525.000,1376.000,1349.000,1461.000,1578.000,1527.000,1349.000,1437.000,1576.000,1535.000,1410.000,1360.000,1461.000,1594.000,1605.000,1466.000,1405.000,1495.000,1666.000,1570.000,1493.000,1557.000,1704.000,1687.000,1546.000,1429.000,1437.000,1546.000,1525.000,1358.000,1237.000,1245.000,1429.000,1322.000,1216.000,1233.000,1378.000,1429.000,1322.000,1221.000,1221.000,1378.000,1461.000,1358.000,1237.000,1386.000,1461.000,1354.000,1175.000,1104.000,1210.000,1364.000,1621.000,2005.000,2702.000,3317.000,3682.000,3765.000,3282.000,2901.000,2442.000,1989.000,1621.000,1466.000,1365.000,1194.000,981.0000,797.0000,826.0000,917.0000,898.0000,709.0000,810.0000,961.0000,994.0000,917.0000,837.0000,938.0000,1093.000,1130.000,1053.000,965.0000,1034.000,1181.000,1169.000,1053.000,1130.000,1297.000,1354.000,1301.000,1173.000,1226.000,1365.000,1434.000,1361.000,1221.000,1226.000,1418.000,1361.000,1205.000,1194.000,1333.000,1410.000,1349.000,1194.000,1309.000,1418.000,1381.000,1245.000,1230.000,1498.000,1492.000,1349.000,1322.000,1437.000,1562.000,1541.000,1397.000,1322.000,1429.000,1546.000,1557.000,1405.000,1428.000,1538.000,1535.000,1397.000,1322.000,1397.000,1536.000,1429.000,1326.000,1397.000,1538.000,1584.000,1339.000,1397.000,1530.000,1589.000,1461.000,1342.000,1373.000,1621.000,1525.000,1418.000,1437.000,1582.000,1685.000,1601.000,1482.000,1501.000,1658.000,1749.000,1652.000,1506.000,1461.000,1562.000,1629.000,1525.000,1354.000,1285.000,1370.000,1461.000,1373.000,1258.000,1205.000,1314.000,1429.000,1373.000,1175.000,1290.000,1429.000,1397.000,1274.000,1217.000,1437.000,1429.000,1314.000,1205.000,1250.000,1333.000,1192.000,1205.000,1504.000,2021.000,2609.000,3192.000,3605.000,3879.000,3557.000,2987.000,2453.000,2122.000,1733.000,1422.000,1109.000,954.0000,981.0000,949.0000,693.0000,682.0000,833.0000,893.0000,842.0000,733.0000,762.0000,919.0000,1045.000,1002.000,895.0000,910.0000,1076.000,1173.000,1045.000,1034.000,1173.000,1297.000,1274.000,1149.000,1237.000,1375.000,1354.000,1237.000,1194.000,1300.000,1416.000,1280.000,1192.000,1280.000,1397.000,1386.000,1184.000,1252.000,1373.000,1408.000,1281.000,1184.000,1268.000,1466.000,1365.000,1274.000,1360.000,1503.000,1546.000,1456.000,1336.000,1375.000,1525.000,1578.000,1461.000,1364.000,1495.000,1578.000,1492.000,1352.000,1349.000,1493.000,1489.000,1343.000,1349.000,1488.000,1578.000,1495.000,1376.000,1349.000,1477.000,1583.000,1525.000,1384.000,1344.000,1576.000,1524.000,1386.000,1345.000,1477.000,1610.000,1480.000,1407.000,1541.000,1678.000,1685.000,1568.000,1495.000,1601.000,1707.000,1687.000,1538.000,1399.000,1456.000,1525.000,1376.000,1237.000,1281.000,1418.000,1431.000,1314.000,1221.000,1358.000,1425.000,1322.000,1221.000,1386.000,1439.000,1338.000,1237.000,1237.000,1408.000,1354.000,1201.000,1119.000,1258.000,1367.000,1442.000,1589.000,1988.000,2682.000,3295.000,3674.000,3797.000,3685.000,3089.000,2622.000,2165.000,1797.000,1611.000,1477.000,1250.000,789.0000,810.0000,885.0000,842.0000,725.0000,661.0000,762.0000,917.0000,930.0000,849.0000,773.0000,904.0000,1045.000,989.0000,913.0000,1002.000,1149.000,1194.000,1111.000,1122.000,1269.000,1322.000,1237.000,1140.000,1194.000,1349.000,1311.000,1181.000,1214.000,1365.000,1418.000,1181.000,1194.000,1344.000,1402.000,1333.000,1173.000,1333.000,1418.000,1365.000,1233.000,1226.000,1367.000,1486.000,1345.000,1322.000,1461.000,1570.000,1527.000,1396.000,1338.000,1461.000,1570.000,1557.000,1405.000,1342.000,1461.000,1565.000,1425.000,1342.000,1437.000,1570.000,1573.000,1354.000,1429.000,1576.000,1601.000,1461.000,1354.000,1562.000,1601.000,1461.000,1354.000,1405.000,1550.000,1493.000,1386.000,1429.000,1578.000,1653.000,1557.000,1450.000,1642.000,1733.000,1652.000,1536.000,1527.000,1733.000,1621.000,1450.000,1397.000,1482.000,1541.000,1278.000,1237.000,1354.000,1477.000,1397.000,1258.000,1221.000,1322.000,1437.000,1397.000,1258.000,1221.000,1320.000,1457.000,1425.000,1290.000,1237.000,1322.000,1461.000,1405.000,1250.000,1186.000,1381.000,1541.000,1742.000,2129.000,2776.000,3359.000,3701.000,3738.000,3493.000,3194.000,2901.000,2549.000,1745.000,1486.000,1381.000,1237.000,1002.000,791.0000,746.0000,853.0000,885.0000,802.0000,669.0000,698.0000,855.0000,906.0000,797.0000,826.0000,997.0000,1105.000,1066.000,965.0000,954.0000,1117.000,1236.000,1194.000,1093.000,1066.000,1333.000,1290.000,1173.000,1130.000,1269.000,1373.000,1354.000,1237.000,1162.000,1296.000,1397.000,1378.000,1237.000,1269.000,1375.000,1386.000,1247.000,1162.000,1269.000,1397.000,1422.000,1303.000,1214.000,1317.000,1473.000,1536.000,1322.000,1397.000,1525.000,1578.000,1461.000,1327.000,1397.000,1525.000,1578.000,1477.000,1338.000,1375.000,1509.000,1493.000,1342.000,1365.000,1495.000,1583.000,1501.000,1376.000,1373.000,1610.000,1525.000,1386.000,1381.000,1501.000,1533.000,1386.000,1365.000,1477.000,1578.000,1525.000,1365.000,1477.000,1610.000,1605.000,1454.000,1424.000,1525.000,1685.000,1578.000,1525.000,1616.000,1738.000,1728.000,1562.000,1461.000,1492.000,1578.000,1557.000,1386.000,1265.000,1297.000,1418.000,1461.000,1322.000,1221.000,1265.000,1416.000,1439.000,1338.000,1237.000,1269.000,1418.000,1489.000,1384.000,1269.000,1285.000,1418.000,1493.000,1354.000,1201.000,1141.000,1397.000,1470.000,1653.000,2101.000,2814.000,3393.000,3714.000,3569.000,3274.000,2897.000,2432.000,1973.000,1450.000,1349.000,1162.000,948.0000,788.0000,826.0000,893.0000,874.0000,768.0000,693.0000,810.0000,961.0000,955.0000,799.0000,936.0000,1089.000,1098.000,1013.000,925.0000,1034.000,1181.000,1226.000,1141.000,1045.000,1152.000,1301.000,1354.000,1269.000,1149.000,1210.000,1365.000,1418.000,1333.000,1205.000,1250.000,1367.000,1422.000,1345.000,1201.000,1214.000,1365.000,1418.000,1344.000,1183.000,1194.000,1345.000,1418.000,1392.000,1245.000,1258.000,1397.000,1504.000,1461.000,1333.000,1322.000,1546.000,1509.000,1364.000,1314.000,1407.000,1515.000,1493.000,1349.000,1290.000,1405.000,1538.000,1525.000,1373.000,1397.000,1530.000,1533.000,1397.000,1322.000,1405.000,1546.000,1557.000,1429.000,1338.000,1405.000,1546.000,1589.000,1339.000,1397.000,1544.000,1584.000,1461.000,1354.000,1397.000,1631.000,1535.000,1448.000,1488.000,1640.000,1728.000,1653.000,1552.000,1674.000,1729.000,1621.000,1450.000,1392.000,1466.000,1525.000,1407.000,1258.000,1232.000,1343.000,1439.000,1258.000,1220.000,1322.000,1429.000,1393.000,1259.000,1213.000,1326.000,1461.000,1437.000,1322.000,1264.000,1343.000,1407.000,1226.000,1108.000,1198.000,1424.000,1621.000,1850.000,2269.000,2927.000,3455.000,3745.000,3686.000,3344.000,2661.000,2325.000,1920.000,1557.000,1354.000,1281.000,1175.000,971.0000,789.0000,763.0000,863.0000,925.0000,826.0000,747.0000,895.0000,1008.000,938.0000,837.0000,872.0000,1021.000,1087.000,997.0000,1003.000,1173.000,1269.000,1248.000,1117.000,1114.000,1264.000,1375.000,1338.000,1221.000,1192.000,1311.000,1431.000,1416.000,1269.000,1210.000,1311.000,1439.000,1418.000,1269.000,1194.000,1296.000,1397.000,1418.000,1285.000,1297.000,1407.000,1442.000,1309.000,1226.000,1348.000,1519.000,1405.000,1314.000,1393.000,1524.000,1568.000,1431.000,1373.000,1501.000,1562.000,1437.000,1322.000,1365.000,1493.000,1578.000,1489.000,1338.000,1373.000,1501.000,1501.000,1358.000,1381.000,1509.000,1599.000,1525.000,1386.000,1501.000,1610.000,1533.000,1386.000,1365.000,1489.000,1594.000,1557.000,1418.000,1397.000,1525.000,1647.000,1621.000,1461.000,1589.000,1722.000,1733.000,1578.000,1501.000,1674.000,1629.000,1450.000,1333.000,1365.000,1466.000,1461.000,1306.000,1216.000,1269.000,1416.000,1429.000,1290.000,1237.000,1386.000,1429.000,1322.000,1221.000,1253.000,1418.000,1473.000,1342.000,1237.000,1264.000,1386.000,1399.000,1109.000,1149.000,1442.000,1781.000,2122.000,2583.000,3165.000,3598.000,3805.000,3638.000,3189.000,2741.000,2472.000,1898.000,1533.000,1245.000,1162.000,1109.000,970.0000,817.0000,709.0000,802.0000,893.0000,874.0000,773.0000,709.0000,981.0000,1002.000,917.0000,853.0000,970.0000,1117.000,1154.000,1047.000,981.0000,1082.000,1237.000,1263.000,1181.000,1162.000,1309.000,1370.000,1285.000,1173.000,1248.000,1397.000,1440.000,1348.000,1216.000,1258.000,1397.000,1448.000,1349.000,1205.000,1214.000,1365.000,1419.000,1365.000,1221.000,1226.000,1365.000,1450.000,1399.000,1269.000,1259.000,1405.000,1514.000,1477.000,1345.000,1322.000,1473.000,1570.000,1525.000,1365.000,1322.000,1429.000,1546.000,1524.000,1365.000,1322.000,1429.000,1557.000,1407.000,1338.000,1437.000,1568.000,1565.000,1424.000,1326.000,1407.000,1546.000,1585.000,1437.000,1338.000,1546.000,1565.000,1429.000,1322.000,1397.000,1530.000,1589.000,1477.000,1378.000,1429.000,1579.000,1653.000,1557.000,1493.000,1664.000,1749.000,1653.000,1514.000,1503.000,1615.000,1669.000,1533.000,1354.000,1309.000,1418.000,1493.000,1250.000,1221.000,1338.000,1445.000,1373.000,1250.000,1217.000,1457.000,1397.000,1274.000,1236.000,1338.000,1476.000,1429.000,1291.000,1237.000,1322.000,1429.000,1364.000,1194.000,1290.000,1637.000,2005.000,2410.000,2965.000,3458.000,3761.000,3402.000,2917.000,2570.000,2359.000,2079.000,1723.000,1194.000,1141.000,1045.000,874.0000,725.0000,703.0000,849.0000,810.0000,721.0000,746.0000,925.0000,1024.000,853.0000,874.0000,1045.000,1141.000,1098.000,981.0000,1002.000,1269.000,1226.000,1109.000,1098.000,1247.000,1365.000,1322.000,1183.000,1162.000,1301.000,1405.000,1386.000,1192.000,1309.000,1424.000,1391.000,1269.000,1184.000,1300.000,1390.000,1269.000,1166.000,1285.000,1425.000,1454.000,1364.000,1258.000,1365.000,1493.000,1536.000,1405.000,1322.000,1552.000,1578.000,1461.000,1322.000,1392.000,1524.000,1578.000,1461.000,1322.000,1373.000,1524.000,1578.000,1489.000,1373.000,1521.000,1594.000,1493.000,1354.000,1365.000,1493.000,1583.000,1501.000,1358.000,1365.000,1493.000,1594.000,1386.000,1365.000,1493.000,1594.000,1553.000,1391.000,1365.000,1493.000,1634.000,1617.000,1466.000,1437.000,1565.000,1716.000,1570.000,1501.000,1589.000,1698.000,1653.000,1482.000,1365.000,1397.000,1504.000,1477.000,1320.000,1221.000,1285.000,1418.000,1429.000,1294.000,1205.000,1265.000,1410.000,1429.000,1314.000,1221.000,1269.000,1418.000,1492.000,1370.000,1269.000,1285.000,1418.000,1437.000,1290.000,1137.000,1141.000,1386.000,1960.000,2357.000,2949.000,3466.000,3757.000,3699.000,2869.000,2570.000,2304.000,1930.000,1557.000,1281.000,1194.000,1002.000,833.0000,725.0000,810.0000,917.0000,928.0000,816.0000,768.0000,874.0000,1025.000,1026.000,919.0000,869.0000,1002.000,1141.000,1162.000,1055.000,991.0000,1087.000,1274.000,1173.000,1088.000,1167.000,1329.000,1370.000,1172.000,1250.000,1397.000,1434.000,1311.000,1205.000,1256.000,1422.000,1303.000,1173.000,1199.000,1364.000,1348.000,1217.000,1226.000,1373.000,1450.000,1381.000,1275.000,1429.000,1539.000,1492.000,1349.000,1327.000,1477.000,1503.000,1365.000,1322.000,1447.000,1551.000,1373.000,1322.000,1444.000,1568.000,1525.000,1381.000,1322.000,1546.000,1533.000,1397.000,1338.000,1429.000,1551.000,1559.000,1429.000,1339.000,1429.000,1576.000,1585.000,1461.000,1413.000,1568.000,1604.000,1484.000,1386.000,1456.000,1653.000,1557.000,1451.000,1503.000,1674.000,1751.000,1663.000,1541.000,1664.000,1693.000,1557.000,1386.000,1448.000,1477.000,1393.000,1248.000,1221.000,1338.000,1365.000,1250.000,1220.000,1327.000,1457.000,1381.000,1258.000,1220.000,1322.000,1461.000,1405.000,1274.000,1221.000,1429.000,1345.000,1162.000,1093.000,1242.000,1541.000,1840.000,2737.000,3306.000,3679.000,3773.000,3470.000,2993.000,2618.000,2373.000,2069.000,1706.000,1365.000,1194.000,1173.000,928.0000,769.0000,746.0000,881.0000,916.0000,826.0000,763.0000,949.0000,1025.000,958.0000,861.0000,906.0000,1077.000,1120.000,991.0000,1018.000,1189.000,1285.000,1141.000,1130.000,1297.000,1393.000,1338.000,1221.000,1345.000,1429.000,1390.000,1245.000,1198.000,1333.000,1429.000,1386.000,1239.000,1184.000,1301.000,1399.000,1386.000,1186.000,1301.000,1429.000,1442.000,1301.000,1227.000,1349.000,1493.000,1514.000,1397.000,1295.000,1397.000,1525.000,1550.000,1429.000,1314.000,1373.000,1501.000,1546.000,1429.000,1314.000,1373.000,1524.000,1578.000,1477.000,1338.000,1397.000,1525.000,1598.000,1501.000,1378.000,1397.000,1525.000,1610.000,1525.000,1386.000,1397.000,1509.000,1594.000,1503.000,1354.000,1349.000,1578.000,1501.000,1376.000,1364.000,1489.000,1610.000,1466.000,1429.000,1541.000,1674.000,1653.000,1536.000,1493.000,1589.000,1706.000,1661.000,1506.000,1397.000,1431.000,1493.000,1322.000,1233.000,1285.000,1418.000,1429.000,1274.000,1181.000,1237.000,1408.000,1429.000,1314.000,1220.000,1268.000,1418.000,1477.000,1354.000,1245.000,1281.000,1418.000,1477.000,1343.000,1204.000,1149.000,1290.000,1397.000,1466.000,1621.000,2744.000,3341.000,3695.000,3797.000,3669.000,3410.000,3013.000,2528.000,2069.000,1733.000,1582.000,1461.000,1226.000,833.0000,874.0000,917.0000,874.0000,757.0000,693.0000,961.0000,943.0000,855.0000,797.0000,938.0000,1088.000,1082.000,925.0000,1064.000,1205.000,1230.000,1149.000,1072.000,1162.000,1301.000,1338.000,1245.000,1141.000,1226.000,1367.000,1328.000,1205.000,1258.000,1397.000,1450.000,1360.000,1221.000,1250.000,1365.000,1418.000,1333.000,1175.000,1195.000,1418.000,1360.000,1221.000,1250.000,1397.000,1482.000,1301.000,1314.000,1461.000,1546.000,1493.000,1360.000,1461.000,1546.000,1501.000,1361.000,1322.000,1439.000,1525.000,1373.000,1326.000,1437.000,1568.000,1557.000,1342.000,1439.000,1570.000,1565.000,1429.000,1338.000,1429.000,1546.000,1565.000,1429.000,1338.000,1399.000,1546.000,1437.000,1342.000,1429.000,1570.000,1621.000,1501.000,1418.000,1477.000,1610.000,1684.000,1589.000,1512.000,1557.000,1674.000,1732.000,1605.000,1450.000,1429.000,1514.000,1541.000,1397.000,1259.000,1237.000,1354.000,1431.000,1349.000,1226.000,1217.000,1322.000,1429.000,1365.000,1258.000,1237.000,1338.000,1457.000,1263.000,1237.000,1354.000,1473.000,1413.000,1274.000,1242.000,1345.000,1349.000,1354.000,1557.000,2026.000,2717.000,3316.000,3688.000,3863.000,3858.000,3605.000,3111.000,2133.000,1866.000,1717.000,1501.000,1226.000,981.0000,949.0000,893.0000,778.0000,693.0000,738.0000,885.0000,919.0000,773.0000,826.0000,989.0000,1053.000,1002.000,917.0000,954.0000,1117.000,1201.000,1154.000,1045.000,1066.000,1236.000,1258.000,1149.000,1162.000,1309.000,1396.000,1338.000,1194.000,1333.000,1407.000,1376.000,1237.000,1194.000,1309.000,1397.000,1376.000,1237.000,1186.000,1301.000,1399.000,1285.000,1210.000,1333.000,1439.000,1454.000,1361.000,1290.000,1405.000,1525.000,1546.000,1429.000,1323.000,1413.000,1546.000,1429.000,1322.000,1397.000,1521.000,1570.000,1461.000,1338.000,1397.000,1525.000,1578.000,1473.000,1342.000,1527.000,1578.000,1477.000,1368.000,1381.000,1521.000,1582.000,1493.000,1359.000,1365.000,1493.000,1578.000,1495.000,1378.000,1495.000,1602.000,1552.000,1440.000,1424.000,1553.000,1623.000,1514.000,1495.000,1629.000,1727.000,1693.000,1473.000,1541.000,1610.000,1557.000,1386.000,1297.000,1466.000,1429.000,1291.000,1216.000,1285.000,1410.000,1290.000,1216.000,1301.000,1450.000,1472.000,1354.000,1264.000,1317.000,1466.000,1477.000,1384.000,1269.000,1296.000,1376.000,1272.000,1233.000,1472.000,1930.000,2484.000,3054.000,3799.000,3898.000,3669.000,3139.000,2583.000,2213.000,2024.000,1813.000,1530.000,1217.000,1029.000,1002.000,1008.000,757.0000,709.0000,811.0000,925.0000,930.0000,821.0000,930.0000,1045.000,1039.000,960.0000,927.0000,1066.000,1205.000,1194.000,1093.000,1029.000,1146.000,1296.000,1314.000,1149.000,1256.000,1397.000,1390.000,1301.000,1205.000,1279.000,1440.000,1333.000,1221.000,1262.000,1375.000,1301.000,1173.000,1226.000,1365.000,1410.000,1344.000,1221.000,1397.000,1466.000,1405.000,1285.000,1322.000,1473.000,1546.000,1493.000,1361.000,1354.000,1493.000,1547.000,1493.000,1349.000,1326.000,1461.000,1546.000,1495.000,1364.000,1326.000,1439.000,1546.000,1525.000,1393.000,1338.000,1439.000,1550.000,1397.000,1339.000,1437.000,1562.000,1557.000,1413.000,1354.000,1546.000,1557.000,1407.000,1338.000,1407.000,1585.000,1461.000,1386.000,1472.000,1594.000,1653.000,1557.000,1557.000,1698.000,1733.000,1605.000,1482.000,1493.000,1589.000,1429.000,1274.000,1280.000,1378.000,1429.000,1194.000,1205.000,1322.000,1405.000,1329.000,1198.000,1205.000,1322.000,1429.000,1365.000,1258.000,1237.000,1342.000,1461.000,1397.000,1259.000,1221.000,1274.000,1333.000,1245.000,1269.000,1642.000,2197.000,2773.000,3326.000,3687.000,3813.000,3373.000,2776.000,2271.000,1994.000,1821.000,1274.000,1029.000,942.0000,981.0000,917.0000,810.0000,709.0000,746.0000,885.0000,917.0000,842.0000,773.0000,826.0000,989.0000,1053.000,1002.000,917.0000,970.0000,1141.000,1205.000,1134.000,1045.000,1070.000,1237.000,1303.000,1258.000,1149.000,1167.000,1333.000,1405.000,1354.000,1237.000,1226.000,1373.000,1461.000,1390.000,1269.000,1226.000,1361.000,1429.000,1386.000,1245.000,1333.000,1429.000,1408.000,1269.000,1210.000,1349.000,1461.000,1450.000,1348.000,1274.000,1397.000,1525.000,1519.000,1322.000,1425.000,1525.000,1546.000,1405.000,1314.000,1397.000,1501.000,1518.000,1399.000,1312.000,1373.000,1495.000,1429.000,1322.000,1375.000,1503.000,1570.000,1461.000,1397.000,1509.000,1578.000,1477.000,1338.000,1365.000,1578.000,1493.000,1358.000,1396.000,1525.000,1614.000,1557.000,1461.000,1589.000,1706.000,1685.000,1578.000,1557.000,1637.000,1722.000,1653.000,1482.000,1405.000,1461.000,1536.000,1461.000,1291.000,1236.000,1301.000,1418.000,1375.000,1256.000,1269.000,1387.000,1397.000,1258.000,1204.000,1269.000,1418.000,1429.000,1312.000,1236.000,1285.000,1418.000,1429.000,1149.000,1141.000,1274.000,1365.000,1440.000,1653.000,2879.000,3431.000,3742.000,3788.000,3621.000,3322.000,2901.000,1989.000,1685.000,1546.000,1399.000,1192.000,965.0000,837.0000,898.0000,917.0000,842.0000,753.0000,725.0000,866.0000,930.0000,849.0000,821.0000,970.0000,1093.000,1066.000,981.0000,949.0000,1082.000,1221.000,1198.000,1109.000,1053.000,1194.000,1311.000,1322.000,1221.000,1141.000,1258.000,1397.000,1390.000,1297.000,1204.000,1279.000,1405.000,1418.000,1301.000,1258.000,1397.000,1416.000,1303.000,1183.000,1256.000,1373.000,1418.000,1333.000,1221.000,1274.000,1429.000,1482.000,1301.000,1354.000,1493.000,1570.000,1493.000,1361.000,1358.000,1546.000,1477.000,1345.000,1338.000,1477.000,1546.000,1493.000,1349.000,1326.000,1461.000,1547.000,1521.000,1365.000,1461.000,1547.000,1525.000,1373.000,1326.000