0.015
0.015
0.015
0.015
0.015
0.015
0.015
0.015
0.015
0.04
0.065
0.07
0.075
0.08
0.105
0.135
0.16
0.16
0.165
0.17
0.205
0.21
0.225
0.22
0.21
0.185
0.19
0.195
0.195
0.18
0.145
0.125
0.115
0.13
0.125
0.1
0.075
0.055
0.06
0.06
0.06
0.05
0.02
0.025
0.02
0.025
0.04
0.02
0.015
-0.005
0
0.015
0.025
0.02
0.015
-0.005
0
0.005
0.015
0.005
0
-0.005
0
0.01
0.02
-0.01
-0.02
-0.02
-0.03
0
0.01
-0.01
-0.02
-0.035
-0.025
-0.025
-0.005
-0.01
-0.025
-0.04
-0.03
-0.015
-0.025
-0.02
-0.04
-0.04
-0.035
-0.025
-0.015
-0.03
-0.04
-0.045
-0.025
-0.02
-0.005
-0.01
-0.025
-0.035
-0.02
-0.005
-0.005
-0.01
-0.015
-0.02
-0.015
0
0.005
-0.005
-0.015
-0.015
-0.015
0.01
0.005
0
-0.025
-0.02
-0.015
0
0.005
0
-0.015
-0.02
-0.03
0
0.01
0
-0.015
-0.02
-0.025
-0.01
0.005
0
-0.015
-0.02
-0.02
-0.005
-0.005
-0.015
-0.025
-0.035
-0.015
-0.015
-0.01
-0.015
-0.02
-0.03
-0.04
-0.03
-0.02
-0.02
-0.03
-0.04
-0.03
-0.025
-0.02
-0.03
-0.035
-0.035
-0.035
-0.03
-0.015
-0.025
-0.04
-0.055
-0.03
-0.03
-0.015
-0.03
-0.045
-0.045
-0.04
-0.04
-0.015
-0.03
-0.04
-0.045
-0.03
-0.02
-0.015
-0.03
-0.045
-0.045
-0.03
-0.035
-0.025
-0.035
-0.03
-0.055
-0.04
-0.025
-0.015
-0.015
-0.03
-0.045
-0.04
-0.03
-0.025
-0.03
-0.035
-0.05
-0.055
-0.04
-0.02
-0.025
-0.04
-0.05
-0.03
-0.02
-0.015
-0.015
-0.05
-0.05
-0.025
-0.015
-0.01
-0.02
-0.03
-0.03
-0.03
-0.02
0
-0.01
-0.025
-0.04
-0.015
-0.01
0.005
0.01
0.005
0
0.01
0.035
0.035
0.02
0.025
0.01
0.035
0.045
0.055
0.05
0.025
0.02
0.02
0.015
0.025
0.015
0.005
-0.005
0.015
0.03
0.03
0.035
0.03
0.025
0.035
0.055
0.06
0.03
0.005
-0.005
-0.005
0.005
0.02
0.005
-0.005
-0.005
-0.015
-0.005
0.005
-0.005
-0.02
-0.02
-0.015
-0.005
0
-0.015
-0.025
-0.03
-0.015
-0.005
0.005
-0.005
-0.025
-0.03
-0.015
-0.01
0.005
0
-0.005
-0.02
-0.005
0.015
0.025
0.025
0.02
0.03
0.065
0.11
0.14
0.19
0.235
0.285
0.355
0.485
0.635
0.8
0.965
1.125
1.325
1.535
1.76
1.98
2.05
1.88
1.4
0.77
0.28
0.01
-0.07
-0.055
-0.025
-0.005
0
-0.005
-0.04
-0.065
-0.075
-0.06
-0.07
-0.07
-0.09
-0.11
-0.095
-0.09
-0.075
-0.08
-0.095
-0.105
-0.08
-0.09
-0.085
-0.09
-0.105
-0.105
-0.105
-0.09
-0.085
-0.1
-0.125
-0.135
-0.115
-0.11
-0.095
-0.12
-0.145
-0.125
-0.12
-0.125
-0.105
-0.115
-0.135
-0.145
-0.125
-0.125
-0.115
-0.115
-0.13
-0.13
-0.12
-0.125
-0.11
-0.115
-0.125
-0.125
-0.105
-0.105
-0.095
-0.105
-0.125
-0.115
-0.11
-0.095
-0.085
-0.085
-0.105
-0.1
-0.095
-0.06
-0.06
-0.055
-0.06
-0.07
-0.04
-0.025
-0.005
0
-0.005
0.005
0.03
0.055
0.095
0.09
0.095
0.1
0.13
0.16
0.19
0.19
0.18
0.185
0.205
0.23
0.24
0.235
0.22
0.215
0.215
0.215
0.225
0.21
0.18
0.155
0.16
0.16
0.155
0.135
0.11
0.095
0.09
0.1
0.09
0.075
0.065
0.04
0.055
0.06
0.07
0.05
0.035
0.025
0.04
0.045
0.045
0.035
0.02
0.015
0.015
0.03
0.05
0.03
0.02
0.01
0.025
0.035
0.025
0.015
0.015
0
0.015
0.015
0.02
0.01
-0.005
-0.005
-0.005
0.01
0.03
0.005
-0.01
-0.005
-0.015
0
0.005
0
-0.02
-0.02
-0.01
0.015
0.015
-0.005
-0.005
-0.01
-0.01
0.01
0.02
0.01
0
-0.01
0
0.015
0.015
0.005
0
0
0.015
0.025
0.02
0.01
-0.005
0
0.01
0.03
0.03
0.02
0.015
0.01
0.01
0.035
0.035
0.03
0.02
0.005
0.015
0.025
0.03
0.02
0.005
-0.005
0.005
0.01
0.02
0.015
0
-0.01
-0.005
0.01
0.03
0
0.005
-0.015
-0.005
0.015
0.03
0.01
-0.005
-0.02
-0.005
0
0.015
0.005
-0.01
-0.015
-0.01
0
0.015
-0.005
-0.02
-0.03
-0.005
0
-0.005
0
-0.005
-0.015
-0.01
-0.01
0.005
-0.005
-0.01
-0.01
-0.005
-0.005
-0.005
-0.01
-0.025
-0.02
-0.02
-0.01
-0.005
-0.005
-0.02
-0.03
-0.015
-0.01
0.005
0
-0.02
-0.01
-0.02
0
0
-0.005
-0.02
-0.03
-0.015
0
0
-0.005
-0.01
-0.025
-0.025
-0.015
-0.005
-0.005
-0.025
-0.03
-0.01
0.005
-0.005
-0.01
-0.025
-0.035
-0.01
0
0
-0.005
-0.025
-0.03
-0.025
-0.01
0
-0.005
-0.02
-0.02
-0.02
0
0
-0.005
-0.025
-0.03
-0.02
-0.005
0.01
-0.005
-0.015
-0.03
-0.005
-0.01
0
0
-0.015
-0.02
0.005
0.005
0
0
-0.01
-0.01
0.025
0.025
0.04
0.04
0.02
0.015
0.03
0.045
0.05
0.06
0.045
0.03
0.05
0.055
0.07
0.045
0.015
0
0.025
0.025
0.025
0.04
0.03
0.02
0.03
0.05
0.055
0.055
0.03
0.025
0.04
0.045
0.035
0.01
-0.015
-0.01
-0.005
0.01
0.01
0
-0.005
-0.01
0.005
0.01
0
0
-0.015
-0.025
-0.015
0
0
-0.015
-0.01
-0.01
-0.005
0
0.01
-0.01
-0.025
-0.02
-0.01
0.01
0.005
0
0
-0.015
-0.015
0.015
0.025
0.02
0.015
0.035
0.08
0.125
0.155
0.21
0.24
0.3
0.385
0.49
0.625
0.765
0.895
1.035
1.2
1.35
1.515
1.685
1.865
2.015
2.03
1.915
1.625
1.15
0.695
0.335
0.11
0.005
-0.045
-0.065
-0.07
-0.045
-0.03
-0.015
-0.015
-0.03
-0.065
-0.08
-0.085
-0.09
-0.09
-0.09
-0.11
-0.12
-0.1
-0.11
-0.1
-0.115
-0.115
-0.12
-0.11
-0.095
-0.105
-0.115
-0.135
-0.135
-0.125
-0.11
-0.115
-0.12
-0.125
-0.135
-0.14
-0.12
-0.125
-0.14
-0.15
-0.16
-0.145
-0.13
-0.135
-0.14
-0.17
-0.165
-0.16
-0.15
-0.14
-0.15
-0.165
-0.165
-0.16
-0.15
-0.15
-0.155
-0.165
-0.16
-0.15
-0.14
-0.14
-0.15
-0.165
-0.17
-0.155
-0.13
-0.12
-0.135
-0.145
-0.155
-0.14
-0.12
-0.13
-0.135
-0.14
-0.135
-0.13
-0.105
-0.105
-0.105
-0.11
-0.11
-0.105
-0.07
-0.06
-0.06
-0.065
-0.05
-0.03
0
0.01
0.015
0.01
0.02
0.05
0.065
0.085
0.1
0.1
0.115
0.135
0.165
0.17
0.185
0.18
0.175
0.2
0.2
0.22
0.21
0.195
0.18
0.18
0.185
0.165
0.15
0.135
0.105
0.11
0.115
0.095
0.085
0.06
0.05
0.04
0.055
0.055
0.045
0.03
0.015
0.03
0.035
0.03
0.025
0.005
0.01
0.015
0.025
0.015
0.005
-0.005
-0.005
0
0.015
0.015
0.015
-0.01
-0.015
-0.01
-0.015
0
-0.01
-0.02
-0.015
-0.02
0.005
-0.005
-0.015
-0.04
-0.03
-0.025
-0.01
-0.01
-0.025
-0.035
-0.03
-0.035
-0.02
-0.02
-0.025
-0.04
-0.055
-0.035
-0.015
-0.03
-0.035
-0.055
-0.04
-0.03
-0.02
-0.01
-0.015
-0.03
-0.035
-0.03
-0.02
-0.005
-0.02
-0.04
-0.03
-0.025
0
-0.01
-0.015
-0.025
-0.025
-0.01
-0.005
0
-0.005
-0.025
-0.02
-0.01
-0.01
-0.005
0
-0.015
-0.025
-0.015
0
-0.01
-0.015
-0.02
-0.025
-0.015
0
0
-0.02
-0.03
-0.035
-0.02
-0.01
-0.005
-0.01
-0.04
-0.04
-0.04
-0.025
-0.015
-0.025
-0.04
-0.035
-0.025
-0.015
-0.025
-0.03
-0.05
-0.045
-0.035
-0.025
-0.03
-0.02
-0.055
-0.055
-0.04
-0.03
-0.035
-0.05
-0.04
-0.05
-0.035
-0.015
-0.025
-0.035
-0.05
-0.045
-0.04
-0.015
-0.02
-0.025
-0.04
-0.055
-0.04
-0.04
-0.04
-0.045
-0.05
-0.04
-0.025
-0.03
-0.025
-0.04
-0.04
-0.04
-0.01
-0.015
-0.03
-0.045
-0.04
-0.03
-0.02
-0.025
-0.03
-0.035
-0.045
-0.025
-0.005
-0.01
-0.025
-0.035
-0.03
-0.03
-0.02
-0.015
-0.035
-0.04
-0.04
-0.025
-0.005
-0.015
-0.02
-0.04
-0.05
-0.04
-0.015
-0.01
-0.02
-0.025
-0.045
-0.03
-0.01
0
-0.015
-0.03
-0.02
-0.015
-0.005
-0.005
0
-0.01
-0.005
0.015
0.02
0.025
0.03
0.01
0.005
0.03
0.04
0.045
0.04
0.035
0.03
0.035
0.045
0.035
0.015
0.015
0.005
0.02
0.035
0.04
0.015
0.02
0.015
0.04
0.05
0.04
0.04
0.025
0.005
0
0.005
0.005
-0.02
-0.02
-0.02
-0.015
0
-0.005
-0.005
-0.015
-0.03
-0.015
0
0
-0.01
-0.025
-0.03
-0.015
-0.005
-0.005
-0.005
-0.02
-0.015
-0.015
-0.01
0.005
-0.025
-0.025
-0.03
-0.015
0
-0.005
-0.005
-0.025
-0.02
-0.015
0.025
0.03
0.04
0.05
0.075
0.12
0.19
0.23
0.275
0.31
0.38
0.515
0.675
0.815
0.95
1.075
1.205
1.365
1.56
1.775
1.925
1.94
1.825
1.545
1.155
0.73
0.375
0.13
0
-0.05
-0.06
-0.05
-0.035
-0.045
-0.05
-0.045
-0.045
-0.025
-0.055
-0.075
-0.09
-0.105
-0.085
-0.09
-0.11
-0.11
-0.115
-0.11
-0.085
-0.085
-0.12
-0.12
-0.13
-0.11
-0.11
-0.1
-0.11
-0.125
-0.125
-0.12
-0.12
-0.12
-0.11
-0.13
-0.145
-0.13
-0.12
-0.115
-0.135
-0.145
-0.15
-0.13
-0.12
-0.125
-0.14
-0.145
-0.145
-0.145
-0.12
-0.135
-0.13
-0.15
-0.145
-0.135
-0.12
-0.13
-0.135
-0.15
-0.155
-0.145
-0.135
-0.115
-0.125
-0.145
-0.15
-0.145
-0.13
-0.12
-0.12
-0.135
-0.13
-0.115
-0.1
-0.105
-0.115
-0.12
-0.12
-0.1
-0.09
-0.08
-0.085
-0.08
-0.08
-0.07
-0.055
-0.05
-0.05
-0.045
-0.03
-0.02
0.005
0.015
0.02
0.03
0.035
0.06
0.09
0.105
0.1
0.12
0.12
0.15
0.18
0.195
0.185
0.19
0.195
0.21
0.22
0.21
0.215
0.195
0.18
0.2
0.18
0.175
0.16
0.135
0.12
0.13
0.125
0.125
0.1
0.075
0.065
0.07
0.08
0.08
0.065
0.04
0.045
0.05
0.055
0.055
0.04
0.02
0.035
0.05
0.05
0.055
0.03
0.015
0.015
0.025
0.05
0.04
0.035
0.015
0.015
0.015
0.025
0.025
0.015
0.01
0
0
0.025
0.015
0.005
-0.015
-0.025
0.005
0.01
0.02
0
-0.01
-0.03
-0.02
-0.005
0
-0.015
-0.025
-0.01
-0.01
0.005
-0.005
-0.02
-0.015
-0.02
-0.01
0.01
0.02
0.01
-0.005
-0.005
0
0.01
0.02
0.015
0
-0.005
0.005
0.025
0.02
0.01
-0.005
-0.005
0.01
0.03
0.02
0.01
-0.01
0.005
-0.005
0.01
0.015
0
-0.01
-0.005
0
0.01
0.005
-0.005
-0.02
-0.015
-0.015
0
0.005
-0.01
-0.025
-0.02
-0.005
0.005
-0.01
-0.01
-0.035
-0.03
-0.035
-0.015
-0.015
-0.02
-0.045
-0.04
-0.03
-0.015
-0.015
-0.04
-0.04
-0.04
-0.025
-0.02
-0.015
-0.025
-0.035
-0.04
-0.03
-0.02
-0.025
-0.025
-0.04
-0.035
-0.025
-0.02
-0.015
-0.02
-0.045
-0.05
-0.03
-0.015
-0.01
-0.03
-0.055
-0.035
-0.035
-0.02
-0.025
-0.02
-0.035
-0.05
-0.03
-0.02
-0.025
-0.02
-0.035
-0.035
-0.025
-0.015
-0.015
-0.025
-0.04
-0.045
-0.03
-0.015
-0.01
-0.02
-0.035
-0.045
-0.035
-0.015
-0.01
-0.01
-0.03
-0.035
-0.025
-0.02
-0.015
-0.02
-0.05
-0.035
-0.025
-0.025
-0.015
-0.035
-0.04
-0.045
-0.025
-0.01
-0.01
-0.025
-0.04
-0.035
-0.02
-0.015
-0.005
-0.02
-0.02
-0.025
-0.01
-0.01
0.005
-0.005
-0.005
0.01
0.015
0.035
0.025
0.01
0.025
0.02
0.02
0.035
0.035
0.035
0.015
0
0.01
0.01
0.015
0.01
-0.01
0
0.005
0.035
0.035
0.025
0.015
0
-0.005
-0.005
-0.03
-0.025
-0.04
-0.03
-0.025
-0.02
-0.03
-0.04
-0.045
-0.04
-0.035
-0.015
-0.02
-0.025
-0.05
-0.045
-0.035
-0.02
-0.025
-0.025
-0.045
-0.05
-0.03
-0.02
-0.025
-0.03
-0.035
-0.045
-0.03
-0.015
-0.01
-0.005
-0.02
-0.005
0.035
0.065
0.11
0.145
0.2
0.265
0.335
0.455
0.61
0.765
0.905
1.08
1.245
1.415
1.575
1.78
1.945
2.035
1.985
1.735
1.3
0.78
0.385
0.13
0.01
-0.04
-0.045
-0.055
-0.055
-0.04
-0.045
-0.035
-0.05
-0.06
-0.11
-0.12
-0.125
-0.11
-0.11
-0.13
-0.135
-0.14
-0.13
-0.12
-0.13
-0.145
-0.16
-0.145
-0.145
-0.13
-0.13
-0.14
-0.15
-0.15
-0.145
-0.13
-0.14
-0.145
-0.16
-0.175
-0.16
-0.155
-0.15
-0.175
-0.175
-0.175
-0.165
-0.155
-0.15
-0.17
-0.19
-0.185
-0.175
-0.17
-0.16
-0.165
-0.175
-0.19
-0.17
-0.155
-0.155
-0.15
-0.18
-0.18
-0.17
-0.155
-0.16
-0.165
-0.175
-0.16
-0.155
-0.145
-0.135
-0.145
-0.16
-0.16
-0.14
-0.13
-0.12
-0.12
-0.15
-0.13
-0.115
-0.105
-0.105
-0.11
-0.11
-0.085
-0.08
-0.045
-0.045
-0.045
-0.05
-0.025
0
0.035
0.045
0.045
0.05
0.065
0.095
0.13
0.14
0.145
0.14
0.165
0.185
0.205
0.21
0.21
0.18
0.19
0.195
0.195
0.19
0.18
0.15
0.14
0.135
0.135
0.125
0.11
0.085
0.07
0.08
0.07
0.07
0.04
0.03
0.03
0.02
0.04
0.035
0.01
0.015
0
0.01
0.03
0.025
0.01
-0.005
0
0.01
0.015
0.015
0
-0.015
-0.005
0.01
0.025
0.015
0.005
-0.015
-0.015
0
-0.005
-0.005
-0.01
-0.025
-0.025
-0.025
-0.02
-0.015
-0.03
-0.03
-0.035
-0.035
-0.01
-0.02
-0.035
-0.04
-0.04
-0.035
-0.025
-0.03
-0.035
-0.04
-0.04
-0.03
-0.02
-0.03
-0.035
-0.04
-0.045
-0.02
-0.015
-0.025
-0.03
-0.04
-0.035
-0.025
-0.005
-0.005
-0.015
-0.03
-0.025
-0.02
0
0.01
-0.005
-0.02
-0.015
-0.01
0.01
0.005
-0.005
-0.02
-0.02
-0.005
0.01
0.01
0.01
-0.01
-0.015
-0.01
0
0
0.005
-0.015
-0.02
-0.01
-0.005
-0.005
-0.005
-0.01
-0.025
-0.015
0
-0.005
-0.01
-0.025
-0.01
-0.02
0.005
-0.01
-0.01
-0.025
-0.03
-0.02
-0.01
-0.01
-0.015
-0.025
-0.045
-0.01
-0.015
-0.02
-0.02
-0.03
-0.04
-0.005
0
0
-0.01
-0.035
-0.025
-0.02
0.005
-0.005
-0.005
-0.02
-0.03
-0.005
0
0
-0.005
-0.03
-0.025
-0.01
0
0.005
-0.015
-0.02
-0.03
-0.01
0.005
0
0.005
-0.02
-0.02
-0.015
0.005
0
-0.005
-0.02
-0.03
-0.005
0.01
-0.01
-0.02
-0.015
-0.02
0
0.005
0.005
-0.01
-0.025
-0.015
-0.02
0.005
0.005
-0.005
-0.02
-0.02
0
0
0
-0.005
-0.03
-0.02
-0.005
-0.005
-0.01
-0.025
-0.03
-0.025
-0.005
0.015
0.015
0.01
0.01
0.01
0.02
0.04
0.05
0.03
0.03
0.04
0.04
0.06
0.06
0.045
0.035
0.03
0.05
0.055
0.045
0.02
-0.005
0
0.015
0.015
0.025
0.025
0.01
0.02
0.03
0.065
0.045
0.04
0.025
0.035
0.02
0.015
0.005
-0.015
-0.015
-0.015
-0.005
0.015
0.02
0.01
-0.01
-0.015
-0.01
0.005
0.01
0
-0.015
-0.02
-0.02
-0.005
0
-0.01
-0.025
-0.02
-0.015
-0.01
0
-0.005
-0.03
-0.02
0
0.01
0.005
0.005
0
-0.005
0.005
0.035
0.05
0.065
0.08
0.11
0.165
0.235
0.29
0.315
0.375
0.495
0.65
0.815
0.97
1.11
1.245
1.38
1.54
1.755
1.955
2.065
2.06
1.895
1.55
1.1
0.635
0.275
0.07
-0.03
-0.05
-0.035
-0.025
-0.035
-0.04
-0.035
-0.035
-0.035
-0.04
-0.075
-0.085
-0.1
-0.105
-0.095
-0.11
-0.115
-0.125
-0.12
-0.11
-0.105
-0.115
-0.12
-0.125
-0.135
-0.11
-0.1
-0.105
-0.115
-0.135
-0.13
-0.125
-0.11
-0.115
-0.135
-0.145
-0.14
-0.12
-0.11
-0.125
-0.145
-0.15
-0.15
-0.13
-0.13
-0.115
-0.145
-0.15
-0.135
-0.135
-0.12
-0.13
-0.135
-0.14
-0.145
-0.13
-0.125
-0.125
-0.13
-0.155
-0.145
-0.12
-0.12
-0.12
-0.12
-0.14
-0.135
-0.12
-0.1
-0.115
-0.115
-0.12
-0.115
-0.105
-0.09
-0.095
-0.095
-0.1
-0.105
-0.085
-0.07
-0.075
-0.07
-0.07
-0.06
-0.04
-0.005
0.005
0
0
0.02
0.045
0.08
0.075
0.095
0.095
0.125
0.16
0.17
0.185
0.195
0.21
0.215
0.235
0.265
0.255
0.25
0.235
0.235
0.235
0.24
0.23
0.21
0.18
0.17
0.165
0.18
0.155
0.13
0.105
0.095
0.1
0.095
0.085
0.07
0.055
0.06
0.065
0.075
0.06
0.05
0.035
0.05
0.045
0.065
0.055
0.055
0.045
0.03
0.05
0.05
0.05
0.05
0.025
0.02
0.035
0.035
0.035
0.025
0.005
0.015
0.03
0.04
0.03
0.015
-0.005
0.005
0.01
0.035
0.03
0.015
-0.005
0.005
0.01
0.02
0.025
0.01
-0.01
0
0.005
0.015
0.02
0.02
0.01
0.02
0.025
0.04
0.03
0.025
0.005
0.015
0.03
0.05
0.03
0.03
0.005
0.02
0.03
0.035
0.025
0.025
0.015
0.015
0.015
0.035
0.03
0.02
0.01
0.015
0.025
0.025
0.025
0.02
0.015
0.01
0.015
0.03
0.035
0.005
0
0.005
0.015
0.025
0.02
0.015
0.005
0
0.015
0.02
0.01
0.015
-0.005
0.005
0.01
0.025
0.02
0.005
-0.01
0
0
0.02
0.015
0.01
-0.015
-0.015
0.005
0.015
0.01
0.015
-0.01
-0.005
0.005
0.01
0
-0.005
-0.01
0
0
0.015
0.025
-0.005
-0.01
-0.02
0
0.015
0.01
0.01
-0.005
-0.005
0
0.015
0.01
-0.005
-0.015
-0.005
0.01
0.015
0.025
0.015
-0.01
-0.01
0.005
0.015
0.02
0
-0.005
-0.005
0.01
0.02
0.01
0.01
0
0.005
0.005
0.02
0.02
0.01
-0.01
0
0.015
0.02
0.025
0.01
0
0.005
0.02
0.045
0.03
0.02
0.01
0.035
0.055
0.065
0.065
0.055
0.045
0.055
0.07
0.085
0.085
0.075
0.07
0.075
0.09
0.095
0.08
0.055
0.05
0.045
0.05
0.075
0.08
0.085
0.05
0.07
0.06
0.08
0.075
0.07
0.06
0.06
0.055
0.055
0.045
0.02
0.005
0.01
0.025
0.035
0.025
0.02
0.005
0.005
0.015
0.025
0.02
0.005
-0.005
0
0.015
0.03
0.015
0
-0.005
-0.005
0.025
0.03
0.015
0.005
-0.005
0.005
0.02
0.04
0.03
0.03
0.035
0.035
0.05
0.08
0.105
0.14
0.18
0.245
0.31
0.38
0.46
0.58
0.74
0.9
1.09
1.25
1.39
1.545
1.74
1.96
2.095
2.065
1.82
1.38
0.845
0.41
0.155
0.035
-0.02
-0.045
-0.04
-0.005
0
-0.005
-0.01
-0.02
-0.04
-0.05
-0.055
-0.05
-0.065
-0.075
-0.1
-0.095
-0.08
-0.055
-0.065
-0.08
-0.1
-0.09
-0.085
-0.08
-0.075
-0.085
-0.09
-0.1
-0.09
-0.085
-0.085
-0.095
-0.1
-0.1
-0.1
-0.085
-0.095
-0.11
-0.125
-0.115
-0.095
-0.075
-0.085
-0.105
-0.12
-0.12
-0.105
-0.09
-0.09
-0.105
-0.1
-0.095
-0.09
-0.09
-0.085
-0.1
-0.11
-0.095
-0.09
-0.065
-0.08
-0.085
-0.1
-0.085
-0.075
-0.06
-0.055
-0.065
-0.065
-0.075
-0.055
-0.025
-0.03
-0.03
-0.03
-0.02
-0.005
0.005
0.01
0.015
0.03
0.05
0.06
0.095
0.095
0.105
0.115
0.14
0.17
0.2
0.2
0.215
0.215
0.235
0.265
0.29
0.28
0.275
0.255
0.245
0.255
0.25
0.245
0.22
0.185
0.175
0.165
0.15
0.14
0.12
0.1
0.1
0.1
0.095
0.085
0.075
0.06
0.065
0.065
0.07
0.07
0.05
0.035
0.04
0.06
0.065
0.055
0.04
0.02
0.04
0.03
0.04
0.035
0.015
0.015
0.02
0.02
0.025
0.015
0
0
-0.005
0.005
0.025
0.01
-0.005
-0.03
-0.025
-0.005
0.005
0
0
-0.01
-0.01
-0.005
0.005
0.01
-0.005
-0.015
-0.005
0.015
0.015
0.01
-0.005
-0.005
0
0.01
0.015
0.025
0
-0.005
-0.01
0.015
0.03
0.01
-0.005
0
0
0
0.005
0.005
-0.01
-0.01
-0.02
0
-0.005
-0.01
-0.015
-0.015
-0.02
0
0
-0.015
-0.025
-0.04
-0.03
-0.02
0
0
-0.015
-0.025
-0.01
-0.015
0
-0.005
-0.01
-0.03
-0.01
-0.015
-0.005
-0.01
-0.025
-0.05
-0.025
-0.03
0
-0.005
-0.03
-0.035
-0.03
-0.025
-0.005
-0.015
-0.015
-0.04
-0.02
-0.025
-0.02
-0.02
-0.015
-0.02
-0.025
-0.01
0
-0.015
-0.035
-0.04
-0.035
-0.02
-0.015
-0.015
-0.03
-0.03
-0.03
-0.015
-0.02
-0.015
-0.025
-0.035
-0.03
-0.03
-0.005
-0.01
-0.02
-0.04
-0.025
-0.02
-0.005
-0.005
-0.025
-0.03
-0.025
-0.025
-0.01
-0.02
-0.025
-0.035
-0.025
-0.02
0
-0.005
-0.03
-0.03
-0.025
-0.01
0
-0.015
-0.025
-0.04
-0.025
-0.015
0.005
0.005
0.005
0.005
0.005
0.025
0.03
0.03
0.02
0.02
0.025
0.035
0.04
0.04
0.025
0.015
0.02
0.02
0.025
0.015
0.01
0
0.005
0.015
0.035
0.025
0.02
0.01
0.03
0.035
0.04
0.03
0.015
-0.01
-0.02
-0.005
-0.005
-0.015
-0.025
-0.035
-0.015
-0.01
-0.005
-0.005
-0.015
-0.03
-0.02
-0.015
-0.015
-0.025
-0.02
-0.035
-0.035
-0.025
-0.005
-0.015
-0.035
-0.03
-0.035
-0.015
-0.015
-0.015
-0.025
-0.045
-0.02
-0.015
0.01
0.01
0
-0.02
-0.015
0.015
0.025
0.02
0.025
0.035
0.06
0.115
0.145
0.175
0.235
0.265
0.29
0.37
0.465
0.585
0.7
0.82
0.96
1.11
1.26
1.385
1.52
1.695
1.875
2
2.025
1.86
1.52
1.06
0.615
0.315
0.135
0.02
-0.04
-0.04
-0.03
-0.01
-0.005
-0.02
-0.03
-0.05
-0.06
-0.06
-0.065
-0.095
-0.105
-0.12
-0.12
-0.105
-0.09
-0.1
-0.12
-0.14
-0.125
-0.115
-0.1
-0.1
-0.12
-0.14
-0.135
-0.11
-0.095
-0.11
-0.115
-0.125
-0.125
-0.12
-0.1
-0.115
-0.135
-0.14
-0.145
-0.12
-0.105
-0.13
-0.15
-0.15
-0.145
-0.13
-0.105
-0.12
-0.145
-0.15
-0.135
-0.13
-0.12
-0.135
-0.13
-0.145
-0.14
-0.135
-0.12
-0.115
-0.13
-0.14
-0.13
-0.135
-0.125
-0.13
-0.14
-0.125
-0.12
-0.115
-0.1
-0.12
-0.125
-0.135
-0.135
-0.115
-0.095
-0.09
-0.105
-0.11
-0.11
-0.095
-0.085
-0.08
-0.09
-0.1
-0.075
-0.065
-0.035
-0.055
-0.055
-0.05
-0.04
-0.02
0.015
0.015
0.02
0.025
0.04
0.06
0.1
0.1
0.11
0.125
0.135
0.17
0.19
0.2
0.195
0.195
0.205
0.23
0.25
0.245
0.23
0.235
0.235
0.22
0.24
0.205
0.195
0.17
0.175
0.175
0.17
0.16
0.14
0.115
0.11
0.1
0.125
0.11
0.09
0.07
0.075
0.095
0.1
0.085
0.065
0.07
0.055
0.085
0.085
0.065
0.06
0.05
0.055
0.075
0.07
0.075
0.07
0.05
0.055
0.07
0.065
0.06
0.055
0.045
0.035
0.065
0.075
0.055
0.055
0.025
0.035
0.035
0.045
0.04
0.025
0.015
0.02
0.025
0.03
0.025
0.02
0.015
0.025
0.03
0.035
0.03
0.02
0.01
0.005
0.015
0.04
0.035
0.035
0.025
0.025
0.04
0.04
0.035
0.02
0.01
0.025
0.04
0.05
0.05
0.04
0.025
0.025
0.035
0.045
0.025
0.02
0.01
0.03
0.03
0.035
0.035
0.03
0.02
0.03
0.035
0.045
0.045
0.03
0.03
0.01
0.025
0.045
0.045
0.025
0.015
0.015
0.02
0.025
0.03
0.025
0.005
0.02
0.03
0.04
0.03
0.02
-0.005
-0.005
0.02
0.025
0.02
0.015
-0.005
0
0.02
0.03
0.025
0.01
0.015
0.01
0.015
0.035
0.02
0
0.005
0
0.015
0.03
0.035
0.025
0.005
0.005
0.015
0.02
0.025
0.01
0.01
0.01
0.015
0.03
0.02
0.01
0
0.015
0.015
0.035
0.01
0.02
-0.01
0.01
0.03
0.03
0.025
0.01
0.005
0.005
0.02
0.015
0.03
0.025
0.02
0.02
0.04
0.035
0.04
0.01
0.015
0.025
0.04
0.05
0.03
0.01
0.005
0.02
0.015
0.035
0.035
0.025
0.005
0.025
0.035
0.04
0.03
0.02
0.015
0.025
0.035
0.06
0.045
0.035
0.03
0.03
0.045
0.06
0.07
0.055
0.06
0.065
0.08
0.085
0.09
0.085
0.065
0.08
0.095
0.095
0.095
0.08
0.075
0.07
0.065
0.08
0.08
0.055
0.04
0.055
0.07
0.08
0.07
0.065
0.075
0.07
0.07
0.095
0.08
0.065
0.035
0.045
0.045
0.055
0.04
0.04
0.015
0.015
0.03
0.04
0.035
0.03
0.01
0.02
0.03
0.04
0.035
0.02
0.01
0.015
0.03
0.04
0.02
0.025
-0.01
0.015
0.015
0.03
0.035
0.025
0
0
0.015
0.03
0.02
0.015
0.015
0.02
0.045
0.065
0.07
0.075
0.095
0.13
0.185
0.255
0.31
0.35
0.4
0.52
0.66
0.83
0.995
1.14
1.29
1.455
1.64
1.835
2.045
2.205
2.24
2.175
1.965
1.635
1.225
0.8
0.475
0.245
0.095
0.025
-0.005
0
-0.01
0
0.01
0.005
0
-0.04
-0.05
-0.075
-0.07
-0.065
-0.08
-0.085
-0.105
-0.095
-0.085
-0.08
-0.085
-0.1
-0.11
-0.12
-0.09
-0.085
-0.09
-0.105
-0.11
-0.12
-0.11
-0.09
-0.105
-0.11
-0.125
-0.125
-0.125
-0.12
-0.125
-0.135
-0.145
-0.15
-0.125
-0.12
-0.125
-0.135
-0.165
-0.15
-0.135
-0.12
-0.13
-0.145
-0.145
-0.145
-0.13
-0.13
-0.135
-0.14
-0.15
-0.13
-0.125
-0.125
-0.125
-0.15
-0.155
-0.14
-0.13
-0.115
-0.12
-0.13
-0.14
-0.135
-0.115
-0.105
-0.095
-0.105
-0.115
-0.11
-0.085
-0.08
-0.085
-0.095
-0.095
-0.07
-0.05
-0.035
-0.025
-0.025
-0.03
-0.005
0.03
0.055
0.06
0.065
0.075
0.1
0.13
0.17
0.17
0.17
0.185
0.195
0.235
0.245
0.26
0.25
0.235
0.235
0.255
0.26
0.255
0.215
0.19
0.195
0.19
0.185
0.19
0.16
0.135
0.125
0.125
0.125
0.11
0.09
0.085
0.08
0.085
0.09
0.065
0.07
0.05
0.05
0.065
0.075
0.07
0.07
0.05
0.06
0.06
0.065
0.065
0.06
0.035
0.05
0.06
0.075
0.06
0.055
0.04
0.05
0.065
0.065
0.05
0.045
0.03
0.03
0.05
0.05
0.04
0.025
0.02
0.02
0.04
0.045
0.04
0.03
0.015
0.03
0.03
0.04
0.025
0.015
0.02
0.01
0.035
0.05
0.045
0.025
0.015
0.03
0.045
0.07
0.065
0.05
0.045
0.04
0.045
0.065
0.065
0.055
0.045
0.055
0.07
0.075
0.055
0.05
0.05
0.055
0.07
0.075
0.065
0.055
0.045
0.045
0.055
0.07
0.065
0.05
0.04
0.035
0.055
0.055
0.055
0.04
0.035
0.035
0.05
0.055
0.04
0.035
0.025
0.035
0.03
0.04
0.05
0.03
0.02
0.025
0.035
0.055
0.035
0.025
0.025
0.025
0.04
0.05
0.035
0.03
0.015
0.025
0.04
0.04
0.04
0.025
0.01
0.02
0.035
0.045
0.04
0.03
0.01
0.02
0.035
0.03
0.03
0.015
0.01
0.015
0.035
0.055
0.04
0.035
0.025
0.03
0.035
0.04
0.035
0.025
0.02
0.03
0.045
0.045
0.05
0.03
0.025
0.02
0.035
0.06
0.05
0.03
0.02
0.035
0.045
0.055
0.055
0.04
0.035
0.025
0.035
0.055
0.05
0.035
0.03
0.045
0.045
0.07
0.065
0.04
0.025
0.045
0.06
0.065
0.065
0.045
0.035
0.05
0.055
0.07
0.08
0.07
0.065
0.085
0.095
0.09
0.09
0.085
0.07
0.09
0.12
0.12
0.12
0.1
0.075
0.08
0.085
0.1
0.08
0.075
0.075
0.075
0.09
0.1
0.095
0.09
0.07
0.085
0.1
0.105
0.1
0.09
0.08
0.055
0.07
0.075
0.075
0.05
0.04
0.045
0.05
0.055
0.04
0.04
0.03
0.04
0.05
0.07
0.065
0.045
0.035
0.04
0.05
0.06
0.05
0.03
0.025
0.035
0.04
0.06
0.05
0.035
0.025
0.04
0.065
0.08
0.07
0.07
0.07
0.095
0.13
0.17
0.22
0.265
0.32
0.39
0.485
0.6
0.74
0.915
1.055
1.225
1.395
1.545
1.73
1.92
2.11
2.165
2.075
1.78
1.295
0.76
0.355
0.145
0.05
0.015
0.015
0.01
0.025
0.02
0.03
0.02
0.005
-0.015
-0.04
-0.04
-0.04
-0.025
-0.045
-0.055
-0.055
-0.055
-0.045
-0.045
-0.05
-0.065
-0.08
